E,flux
0.000000,0.000000
0.020000,43.000000
0.040000,170.000000
0.060000,376.000000
0.080000,657.000000
0.100000,1009.500000
0.120000,1429.500000
0.140000,1912.500000
0.160000,2456.000000
0.180000,3056.000000
0.200000,3708.500000
0.220000,4409.500000
0.240000,5156.000000
0.260000,5942.500000
0.280000,6764.000000
0.300000,7610.000000
0.320000,8459.500000
0.340000,9324.000000
0.360000,10365.000000
0.380000,11450.500000
0.400000,12578.000000
0.420000,13741.500000
0.440000,14948.500000
0.460000,16218.500000
0.480000,17529.000000
0.500000,18877.500000
0.520000,20255.500000
0.540000,21681.000000
0.560000,23171.500000
0.580000,24701.500000
0.600000,26268.500000
0.620000,27868.000000
0.640000,29512.000000
0.660000,31202.500000
0.680000,32929.000000
0.700000,34690.500000
0.720000,36484.000000
0.740000,38316.500000
0.760000,40186.500000
0.780000,42089.000000
0.800000,44022.000000
0.820000,45981.000000
0.840000,47983.000000
0.860000,50018.500000
0.880000,52082.500000
0.900000,54174.000000
0.920000,56284.000000
0.940000,58446.000000
0.960000,60637.500000
0.980000,62855.500000
1.000000,65098.000000
1.020000,67358.000000
1.040000,69667.500000
1.060000,72002.000000
1.080000,74361.000000
1.100000,76742.000000
1.120000,79142.000000
1.140000,81584.000000
1.160000,84048.500000
1.180000,86536.000000
1.200000,89043.500000
1.220000,91570.000000
1.240000,94130.500000
1.260000,96711.500000
1.280000,99312.500000
1.300000,101932.000000
1.320000,104570.000000
1.340000,107234.500000
1.360000,109917.500000
1.380000,112617.000000
1.400000,115331.500000
1.420000,118064.000000
1.440000,120824.500000
1.460000,123601.500000
1.480000,126393.500000
1.500000,129197.500000
1.520000,132020.000000
1.540000,134865.500000
1.560000,137725.000000
1.580000,140597.500000
1.600000,143481.500000
1.620000,146381.500000
1.640000,149299.500000
1.660000,152230.000000
1.680000,155171.000000
1.700000,158121.500000
1.720000,161087.000000
1.740000,164066.500000
1.760000,167055.000000
1.780000,170052.500000
1.800000,173054.000000
1.820000,176076.000000
1.840000,179110.000000
1.860000,182152.000000
1.880000,185200.500000
1.900000,188251.500000
1.920000,191322.500000
1.940000,194401.000000
1.960000,197485.500000
1.980000,200575.000000
2.000000,203665.000000
2.020000,206775.500000
2.040000,209891.000000
2.060000,213010.500000
2.080000,216133.500000
2.100000,219256.500000
2.120000,222396.500000
2.140000,225539.500000
2.160000,228685.500000
2.180000,231832.000000
2.200000,234979.500000
2.220000,238140.500000
2.240000,241303.000000
2.260000,244467.000000
2.280000,247630.000000
2.300000,250793.500000
2.320000,253967.500000
2.340000,257141.500000
2.360000,260315.000000
2.380000,263486.000000
2.400000,266657.500000
2.420000,269838.500000
2.440000,273018.000000
2.460000,276195.500000
2.480000,279368.500000
2.500000,282542.500000
2.520000,285722.000000
2.540000,288899.000000
2.560000,292071.500000
2.580000,295238.000000
2.600000,298407.000000
2.620000,301579.000000
2.640000,304746.000000
2.660000,307908.000000
2.680000,311062.000000
2.700000,314219.500000
2.720000,317376.500000
2.740000,320527.500000
2.760000,323672.500000
2.780000,326806.500000
2.800000,329946.500000
2.820000,333083.000000
2.840000,336212.500000
2.860000,339333.500000
2.880000,342442.000000
2.900000,345559.500000
2.920000,348669.500000
2.940000,351771.500000
2.960000,354864.500000
2.980000,357945.500000
3.000000,361030.500000
3.020000,364107.000000
3.040000,367174.000000
3.060000,370230.500000
3.080000,373276.000000
3.100000,376323.000000
3.120000,379360.000000
3.140000,382387.000000
3.160000,385402.000000
3.180000,388405.500000
3.200000,391409.500000
3.220000,394403.000000
3.240000,397385.000000
3.260000,400353.500000
3.280000,403312.000000
3.300000,406267.000000
3.320000,409210.000000
3.340000,412140.500000
3.360000,415056.000000
3.380000,417962.500000
3.400000,420865.000000
3.420000,423754.500000
3.440000,426631.000000
3.460000,429491.500000
3.480000,432343.500000
3.500000,435187.500000
3.520000,438018.000000
3.540000,440834.000000
3.560000,443632.500000
3.580000,446424.500000
3.600000,449206.500000
3.620000,451973.500000
3.640000,454725.000000
3.660000,457457.000000
3.680000,460185.500000
3.700000,462902.000000
3.720000,465602.000000
3.740000,468286.000000
3.760000,470948.000000
3.780000,473610.500000
3.800000,476257.000000
3.820000,478887.000000
3.840000,481499.500000
3.860000,484091.500000
3.880000,486680.500000
3.900000,489253.000000
3.920000,491808.500000
3.940000,494345.000000
3.960000,496861.500000
3.980000,499374.000000
4.000000,501869.000000
4.020000,504345.500000
4.040000,506803.000000
4.060000,509241.000000
4.080000,511674.000000
4.100000,514088.500000
4.120000,516484.000000
4.140000,518860.000000
4.160000,521217.500000
4.180000,523567.500000
4.200000,525898.500000
4.220000,528210.000000
4.240000,530500.000000
4.260000,532774.500000
4.280000,535038.500000
4.300000,537283.000000
4.320000,539507.000000
4.340000,541709.000000
4.360000,543896.500000
4.380000,546071.000000
4.400000,548225.500000
4.420000,550358.500000
4.440000,552467.500000
4.460000,554566.500000
4.480000,556649.500000
4.500000,558712.500000
4.520000,560753.500000
4.540000,562768.500000
4.560000,564777.000000
4.580000,566767.000000
4.600000,568735.500000
4.620000,570682.000000
4.640000,572602.000000
4.660000,574517.000000
4.680000,576411.000000
4.700000,578283.000000
4.720000,580132.000000
4.740000,581956.000000
4.760000,583773.500000
4.780000,585569.500000
4.800000,587343.000000
4.820000,589092.500000
4.840000,590819.000000
4.860000,592536.500000
4.880000,594232.500000
4.900000,595905.500000
4.920000,597554.500000
4.940000,599181.000000
4.960000,600797.500000
4.980000,602392.000000
5.000000,603963.000000
5.020000,605509.500000
5.040000,607036.000000
5.060000,608550.000000
5.080000,610041.000000
5.100000,611509.000000
5.120000,612951.000000
5.140000,614375.000000
5.160000,615785.000000
5.180000,617172.000000
5.200000,618535.000000
5.220000,619871.500000
5.240000,621192.500000
5.260000,622497.500000
5.280000,623778.500000
5.300000,625036.000000
5.320000,626265.000000
5.340000,627482.500000
5.360000,628680.500000
5.380000,629854.500000
5.400000,631004.500000
5.420000,632125.000000
5.440000,633237.500000
5.460000,634328.000000
5.480000,635394.000000
5.500000,636435.500000
5.520000,637448.000000
5.540000,638453.500000
5.560000,639434.500000
5.580000,640392.000000
5.600000,641324.500000
5.620000,642230.000000
5.640000,643126.000000
5.660000,643998.500000
5.680000,644846.500000
5.700000,645668.500000
5.720000,646466.000000
5.740000,647253.500000
5.760000,648016.000000
5.780000,648754.500000
5.800000,649466.500000
5.820000,650156.000000
5.840000,650833.500000
5.860000,651487.500000
5.880000,652116.000000
5.900000,652718.000000
5.920000,653300.500000
5.940000,653868.000000
5.960000,654412.500000
5.980000,654931.000000
6.000000,655422.500000
6.020000,655897.500000
6.040000,656356.500000
6.060000,656791.000000
6.080000,657201.000000
6.100000,657582.500000
6.120000,657951.000000
6.140000,658300.000000
6.160000,658625.000000
6.180000,658924.000000
6.200000,659194.000000
6.220000,659456.000000
6.240000,659696.000000
6.260000,659911.000000
6.280000,660101.500000
6.300000,660262.500000
6.320000,660417.500000
6.340000,660547.500000
6.360000,660654.500000
6.380000,660735.000000
6.400000,660789.000000
6.420000,660835.500000
6.440000,660858.000000
6.460000,660856.000000
6.480000,660829.000000
6.500000,660776.500000
6.520000,660715.000000
6.540000,660629.500000
6.560000,660520.000000
6.580000,660384.500000
6.600000,660227.000000
6.620000,660059.000000
6.640000,659867.000000
6.660000,659651.000000
6.680000,659408.500000
6.700000,659147.500000
6.720000,658873.000000
6.740000,658576.000000
6.760000,658254.500000
6.780000,657906.000000
6.800000,657542.500000
6.820000,657163.500000
6.840000,656761.500000
6.860000,656335.000000
6.880000,655881.000000
6.900000,655416.500000
6.920000,654934.000000
6.940000,654428.500000
6.960000,653899.000000
6.980000,653339.500000
7.000000,652776.000000
7.020000,652191.500000
7.040000,651583.000000
7.060000,650950.500000
7.080000,650290.000000
7.100000,649627.000000
7.120000,648941.000000
7.140000,648233.000000
7.160000,647500.500000
7.180000,646742.000000
7.200000,645979.500000
7.220000,645194.500000
7.240000,644387.000000
7.260000,643555.000000
7.280000,642701.000000
7.300000,641840.000000
7.320000,640957.500000
7.340000,640052.500000
7.360000,639123.000000
7.380000,638174.500000
7.400000,637217.000000
7.420000,636238.000000
7.440000,635237.000000
7.460000,634211.000000
7.480000,633170.000000
7.500000,632117.500000
7.520000,631044.000000
7.540000,629948.500000
7.560000,628827.500000
7.580000,627696.500000
7.600000,626551.500000
7.620000,625386.000000
7.640000,624198.500000
7.660000,622984.500000
7.680000,621765.500000
7.700000,620530.000000
7.720000,619274.000000
7.740000,617995.500000
7.760000,616690.000000
7.780000,615386.500000
7.800000,614062.500000
7.820000,612719.000000
7.840000,611353.500000
7.860000,609963.000000
7.880000,608573.000000
7.900000,607163.000000
7.920000,605733.500000
7.940000,604282.500000
7.960000,602809.500000
7.980000,601335.000000
8.000000,599842.000000
8.020000,598329.000000
8.040000,596794.000000
8.060000,595241.500000
8.080000,593685.500000
8.100000,592111.000000
8.120000,590517.000000
8.140000,588901.000000
8.160000,587271.500000
8.180000,585636.000000
8.200000,583982.000000
8.220000,582309.500000
8.240000,580614.000000
8.260000,578910.000000
8.280000,577198.000000
8.300000,575468.000000
8.320000,573719.000000
8.340000,571947.000000
8.360000,570172.500000
8.380000,568386.500000
8.400000,566583.000000
8.420000,564761.000000
8.440000,562915.000000
8.460000,561073.000000
8.480000,559216.000000
8.500000,557342.000000
8.520000,555450.000000
8.540000,553534.500000
8.560000,551625.500000
8.580000,549700.000000
8.600000,547758.500000
8.620000,545798.500000
8.640000,543819.500000
8.660000,541845.000000
8.680000,539854.500000
8.700000,537848.000000
8.720000,535823.000000
8.740000,533783.000000
8.760000,531745.500000
8.780000,529693.500000
8.800000,527625.000000
8.820000,525539.500000
8.840000,523442.000000
8.860000,521345.000000
8.880000,519233.000000
8.900000,517106.000000
8.920000,514960.000000
8.940000,512809.000000
8.960000,510654.500000
8.980000,508486.500000
9.000000,506303.000000
9.020000,504101.000000
9.040000,501899.000000
9.060000,499692.000000
9.080000,497471.500000
9.100000,495236.500000
9.120000,492980.500000
9.140000,490733.000000
9.160000,488476.000000
9.180000,486206.000000
9.200000,483921.500000
9.220000,481617.500000
9.240000,479325.500000
9.260000,477021.500000
9.280000,474705.000000
9.300000,472374.500000
9.320000,470028.000000
9.340000,467692.000000
9.360000,465344.500000
9.380000,462985.500000
9.400000,460612.000000
9.420000,458227.000000
9.440000,455851.000000
9.460000,453464.000000
9.480000,451065.500000
9.500000,448653.500000
9.520000,446234.000000
9.540000,443821.000000
9.560000,441398.500000
9.580000,438964.500000
9.600000,436516.000000
9.620000,434066.500000
9.640000,431620.500000
9.660000,429165.000000
9.680000,426699.000000
9.700000,424218.000000
9.720000,421742.000000
9.740000,419266.500000
9.760000,416781.500000
9.780000,414286.500000
9.800000,411775.500000
9.820000,409278.000000
9.840000,406776.500000
9.860000,404266.000000
9.880000,401746.500000
9.900000,399210.000000
9.920000,396693.500000
9.940000,394169.500000
9.960000,391637.500000
9.980000,389096.000000
10.000000,386542.500000
10.020000,384007.000000
10.040000,381464.500000
10.060000,378915.000000
10.080000,376356.000000
10.100000,373789.500000
10.120000,371238.500000
10.140000,368681.500000
10.160000,366118.000000
10.180000,363544.500000
10.200000,360969.000000
10.220000,358407.000000
10.240000,355839.000000
10.260000,353265.000000
10.280000,350680.500000
10.300000,348101.000000
10.320000,345531.000000
10.340000,342956.500000
10.360000,340376.000000
10.380000,337784.000000
10.400000,335204.500000
10.420000,332631.000000
10.440000,330053.500000
10.460000,327470.000000
10.480000,324873.500000
10.500000,322300.000000
10.520000,319727.000000
10.540000,317150.000000
10.560000,314567.500000
10.580000,311973.000000
10.600000,309406.500000
10.620000,306837.500000
10.640000,304265.500000
10.660000,301688.000000
10.680000,299103.000000
10.700000,296544.500000
10.720000,293984.000000
10.740000,291420.500000
10.760000,288852.000000
10.780000,286282.000000
10.800000,283734.500000
10.820000,281186.500000
10.840000,278635.500000
10.860000,276079.500000
10.880000,273528.000000
10.900000,270996.000000
10.920000,268464.000000
10.940000,265929.500000
10.960000,263389.000000
10.980000,260861.000000
11.000000,258349.000000
11.020000,255836.000000
11.040000,253322.500000
11.060000,250800.000000
11.080000,248300.500000
11.100000,245812.000000
11.120000,243323.500000
11.140000,240834.000000
11.160000,238333.000000
11.180000,235868.500000
11.200000,233407.000000
11.220000,230946.500000
11.240000,228485.000000
11.260000,226015.500000
11.280000,223583.000000
11.300000,221153.000000
11.320000,218724.000000
11.340000,216294.000000
11.360000,213862.000000
11.380000,211464.000000
11.400000,209068.500000
11.420000,206675.000000
11.440000,204279.500000
11.460000,201889.000000
11.480000,199529.000000
11.500000,197173.000000
11.520000,194818.500000
11.540000,192461.500000
11.560000,190117.500000
11.580000,187800.000000
11.600000,185486.000000
11.620000,183174.500000
11.640000,180859.000000
11.660000,178566.500000
11.680000,176295.000000
11.700000,174027.500000
11.720000,171762.000000
11.740000,169490.000000
11.760000,167254.500000
11.780000,165032.500000
11.800000,162815.000000
11.820000,160599.500000
11.840000,158375.500000
11.860000,156200.500000
11.880000,154031.500000
11.900000,151867.000000
11.920000,149704.500000
11.940000,147539.500000
11.960000,145421.000000
11.980000,143308.500000
12.000000,141201.500000
12.020000,139095.500000
12.040000,136994.000000
12.060000,134935.500000
12.080000,132883.500000
12.100000,130836.500000
12.120000,128790.000000
12.140000,126756.500000
12.160000,124761.500000
12.180000,122773.000000
12.200000,120790.000000
12.220000,118804.500000
12.240000,116844.000000
12.260000,114915.500000
12.280000,112994.000000
12.300000,111077.500000
12.320000,109156.000000
12.340000,107273.500000
12.360000,105415.000000
12.380000,103563.500000
12.400000,101716.000000
12.420000,99857.500000
12.440000,98060.000000
12.460000,96274.000000
12.480000,94495.000000
12.500000,92719.500000
12.520000,90936.500000
12.540000,89218.500000
12.560000,87508.500000
12.580000,85805.500000
12.600000,84104.500000
12.620000,82405.000000
12.640000,80765.000000
12.660000,79133.500000
12.680000,77508.500000
12.700000,75883.500000
12.720000,74271.000000
12.740000,72712.500000
12.760000,71162.000000
12.780000,69617.000000
12.800000,68069.500000
12.820000,66548.000000
12.840000,65073.000000
12.860000,63605.500000
12.880000,62143.000000
12.900000,60672.500000
12.920000,59247.500000
12.940000,57858.000000
12.960000,56476.000000
12.980000,55097.500000
13.000000,53703.000000
13.020000,52381.000000
13.040000,51079.000000
13.060000,49783.500000
13.080000,48489.000000
13.100000,47177.000000
13.120000,45956.500000
13.140000,44743.500000
13.160000,43536.500000
13.180000,42328.500000
13.200000,41114.000000
13.220000,39985.000000
13.240000,38863.000000
13.260000,37745.000000
13.280000,36623.000000
13.300000,35508.500000
13.320000,34472.000000
13.340000,33441.500000
13.360000,32413.500000
13.380000,31376.500000
13.400000,30366.500000
13.420000,29423.000000
13.440000,28484.000000
13.460000,27545.500000
13.480000,26590.500000
13.500000,25689.500000
13.520000,24839.000000
13.540000,23992.500000
13.560000,23143.500000
13.580000,22266.500000
13.600000,21481.000000
13.620000,20723.500000
13.640000,19968.000000
13.660000,19207.500000
13.680000,18410.000000
13.700000,17739.500000
13.720000,17073.000000
13.740000,16407.000000
13.760000,15733.000000
13.780000,15038.500000
13.800000,14458.000000
13.820000,13880.000000
13.840000,13301.000000
13.860000,12709.500000
13.880000,12118.500000
13.900000,11623.500000
13.920000,11130.000000
13.940000,10634.000000
13.960000,10121.000000
13.980000,9631.000000
14.000000,9216.500000
14.020000,8802.000000
14.040000,8383.000000
14.060000,7943.000000
14.080000,7550.500000
14.100000,7209.000000
14.120000,6866.500000
14.140000,6519.000000
14.160000,6143.000000
14.180000,5842.500000
14.200000,5565.500000
14.220000,5287.500000
14.240000,5003.000000
14.260000,4686.000000
14.280000,4465.000000
14.300000,4244.000000
14.320000,4022.000000
14.340000,3792.500000
14.360000,3547.000000
14.380000,3374.000000
14.400000,3200.500000
14.420000,3025.500000
14.440000,2843.000000
14.460000,2658.500000
14.480000,2524.500000
14.500000,2390.000000
14.520000,2253.500000
14.540000,2109.000000
14.560000,1974.000000
14.580000,1871.500000
14.600000,1768.000000
14.620000,1663.000000
14.640000,1549.500000
14.660000,1453.500000
14.680000,1375.500000
14.700000,1297.000000
14.720000,1216.500000
14.740000,1126.500000
14.760000,1060.500000
14.780000,1001.500000
14.800000,942.000000
14.820000,880.500000
14.840000,810.000000
14.860000,766.000000
14.880000,722.000000
14.900000,677.500000
14.920000,631.000000
14.940000,580.500000
14.960000,548.000000
14.980000,515.000000
15.000000,481.500000
15.020000,446.500000
15.040000,411.000000
15.060000,386.500000
15.080000,362.500000
15.100000,337.500000
15.120000,311.000000
15.140000,287.000000
15.160000,269.000000
15.180000,251.000000
15.200000,233.000000
15.220000,213.000000
15.240000,196.500000
15.260000,184.000000
15.280000,171.000000
15.300000,157.500000
15.320000,142.500000
15.340000,132.000000
15.360000,123.000000
15.380000,114.000000
15.400000,104.500000
15.420000,93.500000
15.440000,87.000000
15.460000,81.000000
15.480000,74.500000
15.500000,67.500000
15.520000,60.500000
15.540000,56.000000
15.560000,51.500000
15.580000,47.500000
15.600000,42.500000
15.620000,38.000000
15.640000,35.000000
15.660000,32.000000
15.680000,29.000000
15.700000,26.000000
15.720000,23.000000
15.740000,21.000000
15.760000,19.000000
15.780000,17.000000
15.800000,15.000000
15.820000,13.500000
15.840000,12.000000
15.860000,11.000000
15.880000,9.500000
15.900000,8.000000
15.920000,7.500000
15.940000,6.500000
15.960000,6.000000
15.980000,5.000000
16.000000,4.500000
16.020000,4.000000
16.040000,3.500000
16.060000,3.000000
16.080000,2.500000
16.100000,2.000000
16.120000,2.000000
16.140000,1.500000
16.160000,1.500000
16.180000,1.000000
16.200000,1.000000
16.220000,1.000000
16.240000,0.500000
16.260000,0.500000
16.280000,0.500000
16.300000,0.500000
16.320000,0.500000
16.340000,0.500000
16.360000,0.000000
16.380000,0.000000
16.400000,0.000000
16.420000,0.000000
16.440000,0.000000
16.460000,0.000000
16.480000,0.000000
16.500000,0.000000
16.520000,0.000000
16.540000,0.000000
16.560000,0.000000
